# Event spectrum before reconstruction for the whole instrument
# File: /data/slag2/jracusin/AMEGO/Simulations/AMEGO4x4ScienceSourceFiles/SF/SolarFlare.inc3.id1.sim
# SE marks the start of the data, EN the end - everything else might change
# The first row is the low edge of the bin, the second the counts in this bin
# The last data line before the EN is the high edge of the last bin, followed by a "-"

SE
100  74330
100.925  76556
101.859  79371
102.802  80302
103.753  82134
104.713  83945
105.682  85965
106.66  86373
107.647  87567
108.643  87945
109.648  88684
110.662  87473
111.686  87056
112.72  86454
113.763  85387
114.815  83924
115.878  82945
116.95  81272
118.032  79867
119.124  78053
120.226  76780
121.339  74989
122.462  74096
123.595  72595
124.738  70835
125.893  69166
127.057  68103
128.233  66618
129.42  65434
130.617  63503
131.826  62267
133.045  61026
134.276  59999
135.519  58702
136.773  57397
138.038  56120
139.316  55076
140.605  53304
141.906  52146
143.219  51125
144.544  49881
145.881  49070
147.231  48212
148.594  46883
149.968  46272
151.356  44780
152.757  44185
154.17  42487
155.597  42287
157.036  41426
158.489  40576
159.956  39951
161.436  38757
162.93  38067
164.437  37271
165.959  36466
167.494  35950
169.044  35461
170.608  34522
172.187  33728
173.78  33478
175.388  32157
177.011  31268
178.649  31163
180.302  30248
181.97  29828
183.654  29346
185.353  28802
187.068  28138
188.799  27599
190.546  26847
192.309  26797
194.089  26138
195.884  25346
197.697  25168
199.526  24674
201.372  24281
203.236  23971
205.116  23267
207.014  22889
208.93  22484
210.863  22051
212.814  21755
214.783  21407
216.77  21003
218.776  20755
220.8  20144
222.844  19975
224.905  19452
226.986  19192
229.087  18934
231.206  18395
233.346  17960
235.505  17970
237.684  17569
239.883  17312
242.103  17130
244.343  16744
246.604  16294
248.886  16180
251.189  15825
253.513  15719
255.859  15538
258.226  15017
260.615  14838
263.027  14628
265.461  14455
267.917  14311
270.396  13995
272.898  13973
275.423  13531
277.971  13345
280.543  13282
283.139  13036
285.759  12730
288.403  12761
291.072  12633
293.765  12121
296.483  12244
299.226  12041
301.995  11716
304.789  11525
307.61  11486
310.456  11313
313.329  11009
316.228  11133
319.154  10846
322.107  10837
325.087  10715
328.095  10492
331.131  10402
334.195  10032
337.287  10032
340.408  9844
343.558  9737
346.737  9620
349.945  9656
353.183  9452
356.451  9382
359.749  9269
363.078  9160
366.438  8880
369.828  8946
373.25  8708
376.704  8759
380.189  8635
383.707  8583
387.258  8437
390.841  8306
394.457  8312
398.107  8221
401.791  7932
405.509  8239
409.261  7910
413.048  7898
416.869  7736
420.727  7837
424.62  7430
428.549  7572
432.514  7481
436.516  7339
440.555  7393
444.631  7193
448.745  6990
452.898  7020
457.088  6974
461.318  6921
465.586  6927
469.894  6644
474.242  6697
478.63  6627
483.059  6605
487.528  6486
492.04  6540
496.592  6386
501.187  6414
505.825  6336
510.505  6321
515.229  6163
519.996  6071
524.807  6183
529.663  6127
534.564  5853
539.511  5962
544.503  5961
549.541  5733
554.626  5714
559.758  5674
564.937  5692
570.164  5711
575.44  5658
580.764  5619
586.138  5554
591.562  5359
597.035  5393
602.56  5442
608.135  5172
613.762  5224
619.441  5150
625.173  5275
630.957  5182
636.796  5071
642.688  5014
648.634  4964
654.636  4954
660.693  4869
666.807  5030
672.977  4812
679.204  4787
685.488  4716
691.831  4734
698.232  4672
704.693  4556
711.214  4588
717.794  4456
724.436  4532
731.139  4510
737.904  4452
744.732  4503
751.623  4442
758.578  4459
765.597  4384
772.681  4266
779.83  4230
787.046  4129
794.328  4198
801.678  4174
809.096  4066
816.582  4059
824.138  4137
831.764  3939
839.46  3988
847.227  3879
855.067  3812
862.979  3837
870.964  3817
879.023  3792
887.156  3703
895.365  3761
903.649  3720
912.011  3749
920.45  3714
928.966  3593
937.562  3619
946.237  3563
954.993  3561
963.829  3474
972.747  3546
981.748  3540
990.832  3394
1000  3329
1009.25  3434
1018.59  3333
1028.02  3356
1037.53  3137
1047.13  3319
1056.82  3279
1066.6  3222
1076.47  3113
1086.43  3171
1096.48  3139
1106.62  3047
1116.86  3106
1127.2  3051
1137.63  3057
1148.15  2983
1158.78  2956
1169.5  2940
1180.32  2986
1191.24  2914
1202.26  2817
1213.39  2771
1224.62  2871
1235.95  2783
1247.38  2677
1258.93  2758
1270.57  2729
1282.33  2729
1294.2  2700
1306.17  2598
1318.26  2706
1330.45  2608
1342.76  2608
1355.19  2565
1367.73  2489
1380.38  2570
1393.16  2486
1406.05  2548
1419.06  2433
1432.19  2468
1445.44  2396
1458.81  2398
1472.31  2542
1485.94  2321
1499.68  2334
1513.56  2282
1527.57  2321
1541.7  2214
1555.97  2328
1570.36  2282
1584.89  2211
1599.56  2181
1614.36  2120
1629.3  2113
1644.37  2152
1659.59  2227
1674.94  2129
1690.44  2182
1706.08  2178
1721.87  2016
1737.8  2069
1753.88  2069
1770.11  2026
1786.49  1879
1803.02  2016
1819.7  1923
1836.54  1938
1853.53  1848
1870.68  1906
1887.99  1906
1905.46  1827
1923.09  1838
1940.89  1907
1958.84  1839
1976.97  1791
1995.26  1845
2013.72  1779
2032.36  1849
2051.16  1776
2070.14  1751
2089.3  1742
2108.63  1683
2128.14  1655
2147.83  1682
2167.7  1666
2187.76  1614
2208  1675
2228.44  1575
2249.05  1579
2269.86  1561
2290.87  1589
2312.06  1605
2333.46  1553
2355.05  1543
2376.84  1533
2398.83  1491
2421.03  1416
2443.43  1480
2466.04  1418
2488.86  1492
2511.89  1390
2535.13  1407
2558.59  1393
2582.26  1463
2606.15  1383
2630.27  1388
2654.61  1337
2679.17  1352
2703.96  1328
2728.98  1366
2754.23  1316
2779.71  1348
2805.43  1291
2831.39  1340
2857.59  1253
2884.03  1261
2910.72  1156
2937.65  1228
2964.83  1143
2992.26  1212
3019.95  1168
3047.89  1168
3076.1  1209
3104.56  1145
3133.29  1102
3162.28  1056
3191.54  1094
3221.07  1086
3250.87  1065
3280.95  1101
3311.31  1110
3341.95  1022
3372.87  1030
3404.08  1057
3435.58  1040
3467.37  1013
3499.45  950
3531.83  1048
3564.51  954
3597.49  970
3630.78  951
3664.38  938
3698.28  983
3732.5  918
3767.04  901
3801.89  902
3837.07  930
3872.58  919
3908.41  862
3944.57  863
3981.07  815
4017.91  796
4055.09  854
4092.61  838
4130.48  852
4168.69  827
4207.27  789
4246.2  825
4285.49  794
4325.14  775
4365.16  776
4405.55  699
4446.31  743
4487.45  766
4528.98  736
4570.88  703
4613.18  716
4655.86  729
4698.94  708
4742.42  716
4786.3  633
4830.59  679
4875.28  663
4920.4  666
4965.92  645
5011.87  629
5058.25  665
5105.05  619
5152.29  596
5199.96  624
5248.07  588
5296.63  597
5345.64  591
5395.11  589
5445.03  566
5495.41  540
5546.26  555
5597.58  617
5649.37  534
5701.64  553
5754.4  539
5807.64  599
5861.38  539
5915.62  515
5970.35  492
6025.6  450
6081.35  486
6137.62  466
6194.41  457
6251.73  452
6309.57  443
6367.96  417
6426.88  465
6486.34  422
6546.36  360
6606.93  421
6668.07  416
6729.77  416
6792.04  363
6854.88  396
6918.31  383
6982.32  341
7046.93  381
7112.14  341
7177.94  348
7244.36  332
7311.39  350
7379.04  297
7447.32  328
7516.23  291
7585.78  310
7655.97  287
7726.81  267
7798.3  272
7870.46  253
7943.28  233
8016.78  250
8090.96  234
8165.82  231
8241.38  201
8317.64  251
8394.6  205
8472.27  194
8550.67  198
8629.79  175
8709.64  163
8790.23  134
8871.56  141
8953.65  148
9036.49  117
9120.11  117
9204.5  111
9289.66  90
9375.62  100
9462.37  71
9549.93  46
9638.29  55
9727.47  27
9817.48  25
9908.32  10
10000  5
10092.5  1
10185.9  0
10280.2  0
10375.3  0
10471.3  0
10568.2  0
10666  0
10764.7  0
10864.3  0
10964.8  0
11066.2  0
11168.6  0
11272  0
11376.3  0
11481.5  0
11587.8  0
11695  0
11803.2  0
11912.4  0
12022.6  0
12133.9  0
12246.2  0
12359.5  0
12473.8  0
12589.3  0
12705.7  0
12823.3  0
12942  0
13061.7  0
13182.6  0
13304.5  0
13427.6  0
13551.9  0
13677.3  0
13803.8  0
13931.6  0
14060.5  0
14190.6  0
14321.9  0
14454.4  0
14588.1  0
14723.1  0
14859.4  0
14996.8  0
15135.6  0
15275.7  0
15417  0
15559.7  0
15703.6  0
15848.9  0
15995.6  0
16143.6  0
16293  0
16443.7  0
16595.9  0
16749.4  0
16904.4  0
17060.8  0
17218.7  0
17378  0
17538.8  0
17701.1  0
17864.9  0
18030.2  0
18197  0
18365.4  0
18535.3  0
18706.8  0
18879.9  0
19054.6  0
19230.9  0
19408.9  0
19588.4  0
19769.7  0
19952.6  0
20137.2  0
20323.6  0
20511.6  0
20701.4  0
20893  0
21086.3  0
21281.4  0
21478.3  0
21677  0
21877.6  0
22080  0
22284.4  0
22490.5  0
22698.6  0
22908.7  0
23120.6  0
23334.6  0
23550.5  0
23768.4  0
23988.3  0
24210.3  0
24434.3  0
24660.4  0
24888.6  0
25118.9  0
25351.3  0
25585.9  0
25822.6  0
26061.5  0
26302.7  0
26546.1  0
26791.7  0
27039.6  0
27289.8  0
27542.3  0
27797.1  0
28054.3  0
28313.9  0
28575.9  0
28840.3  0
29107.2  0
29376.5  0
29648.3  0
29922.6  0
30199.5  0
30478.9  0
30761  0
31045.6  0
31332.9  0
31622.8  0
31915.4  0
32210.7  0
32508.7  0
32809.5  0
33113.1  0
33419.5  0
33728.7  0
34040.8  0
34355.8  0
34673.7  0
34994.5  0
35318.3  0
35645.1  0
35974.9  0
36307.8  0
36643.8  0
36982.8  0
37325  0
37670.4  0
38018.9  0
38370.7  0
38725.8  0
39084.1  0
39445.7  0
39810.7  0
40179.1  0
40550.9  0
40926.1  0
41304.8  0
41686.9  0
42072.7  0
42462  0
42854.9  0
43251.4  0
43651.6  0
44055.5  0
44463.1  0
44874.5  0
45289.8  0
45708.8  0
46131.8  0
46558.6  0
46989.4  0
47424.2  0
47863  0
48305.9  0
48752.8  0
49204  0
49659.2  0
50118.7  0
50582.5  0
51050.5  0
51522.9  0
51999.6  0
52480.7  0
52966.3  0
53456.4  0
53951.1  0
54450.3  0
54954.1  0
55462.6  0
55975.8  0
56493.7  0
57016.4  0
57544  0
58076.4  0
58613.8  0
59156.2  0
59703.5  0
60256  0
60813.5  0
61376.2  0
61944.1  0
62517.3  0
63095.7  0
63679.6  0
64268.8  0
64863.4  0
65463.6  0
66069.3  0
66680.7  0
67297.7  0
67920.4  0
68548.8  0
69183.1  0
69823.2  0
70469.3  0
71121.4  0
71779.4  0
72443.6  0
73113.9  0
73790.4  0
74473.2  0
75162.3  0
75857.8  0
76559.7  0
77268.1  0
77983  0
78704.6  0
79432.8  0
80167.8  0
80909.6  0
81658.2  0
82413.8  0
83176.4  0
83946  0
84722.7  0
85506.7  0
86297.9  0
87096.4  0
87902.3  0
88715.6  0
89536.5  0
90364.9  0
91201.1  0
92045  0
92896.6  0
93756.2  0
94623.7  0
95499.3  0
96382.9  0
97274.7  0
98174.8  0
99083.2  0
100000  0
100925  0
101859  0
102802  0
103753  0
104713  0
105682  0
106660  0
107647  0
108643  0
109648  0
110662  0
111686  0
112720  0
113763  0
114815  0
115878  0
116950  0
118032  0
119124  0
120226  0
121339  0
122462  0
123595  0
124738  0
125893  0
127057  0
128233  0
129420  0
130617  0
131826  0
133045  0
134276  0
135519  0
136773  0
138038  0
139316  0
140605  0
141906  0
143219  0
144544  0
145881  0
147231  0
148594  0
149968  0
151356  0
152757  0
154170  0
155597  0
157036  0
158489  0
159956  0
161436  0
162930  0
164437  0
165959  0
167494  0
169044  0
170608  0
172187  0
173780  0
175388  0
177011  0
178649  0
180302  0
181970  0
183654  0
185353  0
187068  0
188799  0
190546  0
192309  0
194089  0
195884  0
197697  0
199526  0
201372  0
203236  0
205116  0
207014  0
208930  0
210863  0
212814  0
214783  0
216770  0
218776  0
220800  0
222844  0
224905  0
226986  0
229087  0
231206  0
233346  0
235505  0
237684  0
239883  0
242103  0
244343  0
246604  0
248886  0
251189  0
253513  0
255859  0
258226  0
260615  0
263027  0
265461  0
267917  0
270396  0
272898  0
275423  0
277971  0
280543  0
283139  0
285759  0
288403  0
291072  0
293765  0
296483  0
299226  0
301995  0
304789  0
307610  0
310456  0
313329  0
316228  0
319154  0
322107  0
325087  0
328095  0
331131  0
334195  0
337287  0
340408  0
343558  0
346737  0
349945  0
353183  0
356451  0
359749  0
363078  0
366438  0
369828  0
373250  0
376704  0
380189  0
383707  0
387258  0
390841  0
394457  0
398107  0
401791  0
405509  0
409261  0
413048  0
416869  0
420727  0
424620  0
428549  0
432514  0
436516  0
440555  0
444631  0
448745  0
452898  0
457088  0
461318  0
465586  0
469894  0
474242  0
478630  0
483059  0
487528  0
492040  0
496592  0
501187  0
505825  0
510505  0
515229  0
519996  0
524807  0
529663  0
534564  0
539511  0
544503  0
549541  0
554626  0
559758  0
564937  0
570164  0
575440  0
580764  0
586138  0
591562  0
597035  0
602560  0
608135  0
613762  0
619441  0
625173  0
630957  0
636796  0
642688  0
648634  0
654636  0
660693  0
666807  0
672977  0
679204  0
685488  0
691831  0
698232  0
704693  0
711214  0
717794  0
724436  0
731139  0
737904  0
744732  0
751623  0
758578  0
765597  0
772681  0
779830  0
787046  0
794328  0
801678  0
809096  0
816582  0
824138  0
831764  0
839460  0
847227  0
855067  0
862979  0
870964  0
879023  0
887156  0
895365  0
903649  0
912011  0
920450  0
928966  0
937562  0
946237  0
954993  0
963829  0
972747  0
981748  0
990832  0
1e+06   -
EN

# end
