# Event spectrum after reconstruction for the whole instrument
# File: /data/slag2/jracusin/AMEGO/Simulations/AMEGO4x4ScienceSourceFiles/SF/SolarFlare.inc3.id1.sim
# SE marks the start of the data, EN the end - everything else might change
# The first row is the low edge of the bin, the second the counts in this bin
# The last data line before the EN is the high edge of the last bin, followed by a "-"

SE
100  40037
100.925  42300
101.859  44346
102.802  45918
103.753  47426
104.713  49177
105.682  50773
106.66  51698
107.647  52832
108.643  53617
109.648  54389
110.662  54162
111.686  54151
112.72  53798
113.763  53861
114.815  52909
115.878  52742
116.95  51930
118.032  51132
119.124  50090
120.226  49582
121.339  48354
122.462  48045
123.595  47227
124.738  46180
125.893  44976
127.057  44649
128.233  43996
129.42  43044
130.617  41521
131.826  41126
133.045  40297
134.276  39804
135.519  39107
136.773  38277
138.038  37425
139.316  37143
140.605  35756
141.906  34955
143.219  34482
144.544  33623
145.881  33238
147.231  32648
148.594  31917
149.968  31355
151.356  30469
152.757  30167
154.17  28960
155.597  28946
157.036  28224
158.489  27835
159.956  27348
161.436  26752
162.93  26257
164.437  25701
165.959  25149
167.494  24740
169.044  24669
170.608  23829
172.187  23578
173.78  23217
175.388  22479
177.011  21910
178.649  21761
180.302  21103
181.97  20820
183.654  20433
185.353  20213
187.068  19826
188.799  19446
190.546  18886
192.309  18874
194.089  18544
195.884  18023
197.697  17835
199.526  17573
201.372  17247
203.236  17000
205.116  16620
207.014  16297
208.93  16091
210.863  15765
212.814  15540
214.783  15302
216.77  14988
218.776  14768
220.8  14432
222.844  14331
224.905  13957
226.986  13847
229.087  13537
231.206  13259
233.346  12803
235.505  12951
237.684  12649
239.883  12480
242.103  12341
244.343  12054
246.604  11824
248.886  11750
251.189  11445
253.513  11462
255.859  11202
258.226  10806
260.615  10762
263.027  10517
265.461  10536
267.917  10375
270.396  10163
272.898  10117
275.423  9786
277.971  9611
280.543  9592
283.139  9389
285.759  9154
288.403  9099
291.072  9053
293.765  8649
296.483  8762
299.226  8615
301.995  8335
304.789  8284
307.61  8183
310.456  8036
313.329  7758
316.228  7785
319.154  7713
322.107  7624
325.087  7556
328.095  7415
331.131  7296
334.195  7130
337.287  7097
340.408  6918
343.558  6787
346.737  6634
349.945  6625
353.183  6484
356.451  6478
359.749  6352
363.078  6341
366.438  6075
369.828  6091
373.25  5921
376.704  5990
380.189  5719
383.707  5859
387.258  5497
390.841  5483
394.457  5572
398.107  5472
401.791  5273
405.509  5322
409.261  5133
413.048  5090
416.869  5078
420.727  5112
424.62  4819
428.549  4850
432.514  4863
436.516  4711
440.555  4719
444.631  4526
448.745  4348
452.898  4455
457.088  4417
461.318  4344
465.586  4307
469.894  4092
474.242  4076
478.63  4096
483.059  4015
487.528  4013
492.04  3978
496.592  3910
501.187  3864
505.825  3771
510.505  3789
515.229  3652
519.996  3662
524.807  3690
529.663  3628
534.564  3467
539.511  3564
544.503  3523
549.541  3290
554.626  3353
559.758  3278
564.937  3308
570.164  3312
575.44  3112
580.764  3210
586.138  3098
591.562  3094
597.035  3083
602.56  3025
608.135  2858
613.762  2911
619.441  2812
625.173  2901
630.957  2871
636.796  2690
642.688  2751
648.634  2705
654.636  2670
660.693  2644
666.807  2675
672.977  2585
679.204  2606
685.488  2534
691.831  2523
698.232  2556
704.693  2395
711.214  2475
717.794  2375
724.436  2387
731.139  2344
737.904  2346
744.732  2333
751.623  2273
758.578  2303
765.597  2258
772.681  2201
779.83  2183
787.046  2135
794.328  2172
801.678  2167
809.096  2114
816.582  2096
824.138  2115
831.764  2056
839.46  2116
847.227  1970
855.067  1980
862.979  1986
870.964  2014
879.023  2027
887.156  1895
895.365  1950
903.649  2002
912.011  1982
920.45  1952
928.966  1885
937.562  1894
946.237  1886
954.993  1889
963.829  1794
972.747  1912
981.748  1838
990.832  1745
1000  1750
1009.25  1795
1018.59  1812
1028.02  1786
1037.53  1674
1047.13  1779
1056.82  1750
1066.6  1688
1076.47  1631
1086.43  1706
1096.48  1727
1106.62  1631
1116.86  1675
1127.2  1662
1137.63  1633
1148.15  1619
1158.78  1601
1169.5  1596
1180.32  1605
1191.24  1608
1202.26  1557
1213.39  1557
1224.62  1604
1235.95  1557
1247.38  1517
1258.93  1554
1270.57  1559
1282.33  1541
1294.2  1545
1306.17  1479
1318.26  1571
1330.45  1501
1342.76  1488
1355.19  1491
1367.73  1417
1380.38  1521
1393.16  1444
1406.05  1500
1419.06  1440
1432.19  1461
1445.44  1430
1458.81  1470
1472.31  1521
1485.94  1375
1499.68  1418
1513.56  1375
1527.57  1429
1541.7  1384
1555.97  1426
1570.36  1373
1584.89  1342
1599.56  1375
1614.36  1314
1629.3  1288
1644.37  1359
1659.59  1398
1674.94  1331
1690.44  1358
1706.08  1377
1721.87  1264
1737.8  1317
1753.88  1305
1770.11  1339
1786.49  1255
1803.02  1338
1819.7  1227
1836.54  1223
1853.53  1202
1870.68  1261
1887.99  1225
1905.46  1204
1923.09  1183
1940.89  1270
1958.84  1227
1976.97  1165
1995.26  1245
2013.72  1187
2032.36  1232
2051.16  1215
2070.14  1158
2089.3  1178
2108.63  1111
2128.14  1119
2147.83  1141
2167.7  1159
2187.76  1102
2208  1166
2228.44  1065
2249.05  1116
2269.86  1097
2290.87  1088
2312.06  1136
2333.46  1106
2355.05  1098
2376.84  1118
2398.83  1067
2421.03  985
2443.43  1068
2466.04  986
2488.86  1072
2511.89  1008
2535.13  988
2558.59  1007
2582.26  1072
2606.15  1045
2630.27  1019
2654.61  978
2679.17  1019
2703.96  951
2728.98  1002
2754.23  984
2779.71  1017
2805.43  973
2831.39  1030
2857.59  941
2884.03  957
2910.72  885
2937.65  966
2964.83  877
2992.26  931
3019.95  913
3047.89  916
3076.1  952
3104.56  900
3133.29  880
3162.28  839
3191.54  860
3221.07  896
3250.87  872
3280.95  862
3311.31  924
3341.95  823
3372.87  832
3404.08  846
3435.58  850
3467.37  850
3499.45  812
3531.83  862
3564.51  774
3597.49  814
3630.78  809
3664.38  773
3698.28  846
3732.5  766
3767.04  761
3801.89  753
3837.07  795
3872.58  769
3908.41  727
3944.57  751
3981.07  717
4017.91  700
4055.09  750
4092.61  709
4130.48  739
4168.69  704
4207.27  691
4246.2  720
4285.49  713
4325.14  689
4365.16  682
4405.55  601
4446.31  672
4487.45  669
4528.98  645
4570.88  614
4613.18  616
4655.86  626
4698.94  630
4742.42  631
4786.3  565
4830.59  600
4875.28  605
4920.4  572
4965.92  580
5011.87  559
5058.25  588
5105.05  557
5152.29  539
5199.96  543
5248.07  530
5296.63  516
5345.64  533
5395.11  528
5445.03  493
5495.41  489
5546.26  499
5597.58  554
5649.37  490
5701.64  485
5754.4  472
5807.64  528
5861.38  473
5915.62  456
5970.35  443
6025.6  389
6081.35  417
6137.62  404
6194.41  396
6251.73  398
6309.57  387
6367.96  362
6426.88  415
6486.34  350
6546.36  336
6606.93  355
6668.07  358
6729.77  352
6792.04  315
6854.88  338
6918.31  324
6982.32  278
7046.93  320
7112.14  287
7177.94  287
7244.36  283
7311.39  266
7379.04  254
7447.32  276
7516.23  261
7585.78  269
7655.97  225
7726.81  210
7798.3  215
7870.46  212
7943.28  195
8016.78  180
8090.96  189
8165.82  189
8241.38  150
8317.64  198
8394.6  159
8472.27  148
8550.67  153
8629.79  136
8709.64  124
8790.23  101
8871.56  98
8953.65  105
9036.49  93
9120.11  81
9204.5  70
9289.66  60
9375.62  61
9462.37  54
9549.93  31
9638.29  40
9727.47  20
9817.48  15
9908.32  8
10000  2
10092.5  0
10185.9  0
10280.2  0
10375.3  0
10471.3  0
10568.2  0
10666  0
10764.7  0
10864.3  0
10964.8  0
11066.2  0
11168.6  0
11272  0
11376.3  0
11481.5  0
11587.8  0
11695  0
11803.2  0
11912.4  0
12022.6  0
12133.9  0
12246.2  0
12359.5  0
12473.8  0
12589.3  0
12705.7  0
12823.3  0
12942  0
13061.7  0
13182.6  0
13304.5  0
13427.6  0
13551.9  0
13677.3  0
13803.8  0
13931.6  0
14060.5  0
14190.6  0
14321.9  0
14454.4  0
14588.1  0
14723.1  0
14859.4  0
14996.8  0
15135.6  0
15275.7  0
15417  0
15559.7  0
15703.6  0
15848.9  0
15995.6  0
16143.6  0
16293  0
16443.7  0
16595.9  0
16749.4  0
16904.4  0
17060.8  0
17218.7  0
17378  0
17538.8  0
17701.1  0
17864.9  0
18030.2  0
18197  0
18365.4  0
18535.3  0
18706.8  0
18879.9  0
19054.6  0
19230.9  0
19408.9  0
19588.4  0
19769.7  0
19952.6  0
20137.2  0
20323.6  0
20511.6  0
20701.4  0
20893  0
21086.3  0
21281.4  0
21478.3  0
21677  0
21877.6  0
22080  0
22284.4  0
22490.5  0
22698.6  0
22908.7  0
23120.6  0
23334.6  0
23550.5  0
23768.4  0
23988.3  0
24210.3  0
24434.3  0
24660.4  0
24888.6  0
25118.9  0
25351.3  0
25585.9  0
25822.6  0
26061.5  0
26302.7  0
26546.1  0
26791.7  0
27039.6  0
27289.8  0
27542.3  0
27797.1  0
28054.3  0
28313.9  0
28575.9  0
28840.3  0
29107.2  0
29376.5  0
29648.3  0
29922.6  0
30199.5  0
30478.9  0
30761  0
31045.6  0
31332.9  0
31622.8  0
31915.4  0
32210.7  0
32508.7  0
32809.5  0
33113.1  0
33419.5  0
33728.7  0
34040.8  0
34355.8  0
34673.7  0
34994.5  0
35318.3  0
35645.1  0
35974.9  0
36307.8  0
36643.8  0
36982.8  0
37325  0
37670.4  0
38018.9  0
38370.7  0
38725.8  0
39084.1  0
39445.7  0
39810.7  0
40179.1  0
40550.9  0
40926.1  0
41304.8  0
41686.9  0
42072.7  0
42462  0
42854.9  0
43251.4  0
43651.6  0
44055.5  0
44463.1  0
44874.5  0
45289.8  0
45708.8  0
46131.8  0
46558.6  0
46989.4  0
47424.2  0
47863  0
48305.9  0
48752.8  0
49204  0
49659.2  0
50118.7  0
50582.5  0
51050.5  0
51522.9  0
51999.6  0
52480.7  0
52966.3  0
53456.4  0
53951.1  0
54450.3  0
54954.1  0
55462.6  0
55975.8  0
56493.7  0
57016.4  0
57544  0
58076.4  0
58613.8  0
59156.2  0
59703.5  0
60256  0
60813.5  0
61376.2  0
61944.1  0
62517.3  0
63095.7  0
63679.6  0
64268.8  0
64863.4  0
65463.6  0
66069.3  0
66680.7  0
67297.7  0
67920.4  0
68548.8  0
69183.1  0
69823.2  0
70469.3  0
71121.4  0
71779.4  0
72443.6  0
73113.9  0
73790.4  0
74473.2  0
75162.3  0
75857.8  0
76559.7  0
77268.1  0
77983  0
78704.6  0
79432.8  0
80167.8  0
80909.6  0
81658.2  0
82413.8  0
83176.4  0
83946  0
84722.7  0
85506.7  0
86297.9  0
87096.4  0
87902.3  0
88715.6  0
89536.5  0
90364.9  0
91201.1  0
92045  0
92896.6  0
93756.2  0
94623.7  0
95499.3  0
96382.9  0
97274.7  0
98174.8  0
99083.2  0
100000  0
100925  0
101859  0
102802  0
103753  0
104713  0
105682  0
106660  0
107647  0
108643  0
109648  0
110662  0
111686  0
112720  0
113763  0
114815  0
115878  0
116950  0
118032  0
119124  0
120226  0
121339  0
122462  0
123595  0
124738  0
125893  0
127057  0
128233  0
129420  0
130617  0
131826  0
133045  0
134276  0
135519  0
136773  0
138038  0
139316  0
140605  0
141906  0
143219  0
144544  0
145881  0
147231  0
148594  0
149968  0
151356  0
152757  0
154170  0
155597  0
157036  0
158489  0
159956  0
161436  0
162930  0
164437  0
165959  0
167494  0
169044  0
170608  0
172187  0
173780  0
175388  0
177011  0
178649  0
180302  0
181970  0
183654  0
185353  0
187068  0
188799  0
190546  0
192309  0
194089  0
195884  0
197697  0
199526  0
201372  0
203236  0
205116  0
207014  0
208930  0
210863  0
212814  0
214783  0
216770  0
218776  0
220800  0
222844  0
224905  0
226986  0
229087  0
231206  0
233346  0
235505  0
237684  0
239883  0
242103  0
244343  0
246604  0
248886  0
251189  0
253513  0
255859  0
258226  0
260615  0
263027  0
265461  0
267917  0
270396  0
272898  0
275423  0
277971  0
280543  0
283139  0
285759  0
288403  0
291072  0
293765  0
296483  0
299226  0
301995  0
304789  0
307610  0
310456  0
313329  0
316228  0
319154  0
322107  0
325087  0
328095  0
331131  0
334195  0
337287  0
340408  0
343558  0
346737  0
349945  0
353183  0
356451  0
359749  0
363078  0
366438  0
369828  0
373250  0
376704  0
380189  0
383707  0
387258  0
390841  0
394457  0
398107  0
401791  0
405509  0
409261  0
413048  0
416869  0
420727  0
424620  0
428549  0
432514  0
436516  0
440555  0
444631  0
448745  0
452898  0
457088  0
461318  0
465586  0
469894  0
474242  0
478630  0
483059  0
487528  0
492040  0
496592  0
501187  0
505825  0
510505  0
515229  0
519996  0
524807  0
529663  0
534564  0
539511  0
544503  0
549541  0
554626  0
559758  0
564937  0
570164  0
575440  0
580764  0
586138  0
591562  0
597035  0
602560  0
608135  0
613762  0
619441  0
625173  0
630957  0
636796  0
642688  0
648634  0
654636  0
660693  0
666807  0
672977  0
679204  0
685488  0
691831  0
698232  0
704693  0
711214  0
717794  0
724436  0
731139  0
737904  0
744732  0
751623  0
758578  0
765597  0
772681  0
779830  0
787046  0
794328  0
801678  0
809096  0
816582  0
824138  0
831764  0
839460  0
847227  0
855067  0
862979  0
870964  0
879023  0
887156  0
895365  0
903649  0
912011  0
920450  0
928966  0
937562  0
946237  0
954993  0
963829  0
972747  0
981748  0
990832  0
1e+06   -
EN

# end
